#d+<sup>13</sup>C&rarr;<sup>12</sup>C+t, <em>E<sub>k</sub></em>(d)=2 MeV
#<em>&theta;</em><sub>3</sub>, <em>&theta;</em><sub>4</sub>
180  0
163.96693442783  5.7624538737447
157.57997258086  8.1556336614282
152.83638215502  9.9963031349813
148.95807635468  11.551694556184
145.63887649123  12.92523512201
142.71951632265  14.169928718441
140.10418254112  15.317239297173
137.72975205436  16.387652974425
135.55195822704  17.395389746561
133.5383084664  18.350796237336
131.66410763332  19.261678275823
129.91006482558  20.13409641934
128.2607728301  20.972867387617
126.70369900374  21.781894267137
125.22849115493  22.564391939241
123.82648558548  23.323045702522
122.49034944105  24.060125797516
121.21381496441  24.777571947975
119.99147825808  25.477056986478
118.81864434491  26.160035559553
117.6912061126  26.827781976924
116.60554848972  27.481420022516
115.5584717032  28.121946719466
114.5471291676  28.750251482986
113.56897673575  29.367131709664
112.62173087193  29.973305581212
111.70333390521  30.569422667654
110.81192495443  31.156072775039
109.94581543613  31.733793380228
109.1034683055  32.303075918958
108.2834803606  32.864371136149
107.48456707761  33.418093663811
106.70554955076  33.964625958559
105.94534319263  34.504321704889
105.20294791535  35.037508770166
104.47743956387  35.564491781419
103.76796241306  36.08555438144
103.0737225729  36.600961211639
102.39398217215  37.110959661012
101.72805421213  37.615781414085
101.07529799951  38.11564382534
100.43511508129  38.610751143319
99.806945616868  39.101295604014
99.190265131651  39.587458410203
98.584581604975  40.069410610931
97.989432851626  40.547313893312
97.404384162083  41.021321297095
96.829026171294  41.491577861001
96.262972929862  41.958221208639
95.70586015497  42.421382080754
95.157343641259  42.881184819696
94.617097814396  43.337747811258
94.084814412213  43.791183888369
93.560201280128  44.241600700607
93.04298126916  44.689101052997
92.532891226218  45.133783217153
92.029681067543  45.575741217501
91.533112927214  46.015065094951
91.042960373537  46.451841150176
90.559007686927  46.886152168398
90.081049193578  47.31807762735
89.608888649835  47.747693889965
89.142338672704  48.175074383113
88.68122021242  48.600289763628
88.225362063402  49.023408072698
87.774600410281  49.444494879623
87.328778406051  49.863613415804
86.887745779632  50.280824699781
86.451358470434  50.696187654049
86.019478287722  51.109759214283
85.591972592788  51.521594431599
85.168714002131  51.931746568375
84.74958010999  52.34026718812
84.334453228749  52.747206239859
83.923220145843  53.152612137424
83.515771895926  53.556531834038
83.112003547167  53.959010892525
82.711814000633  54.360093551467
82.315105801814  54.759822787589
81.92178496341  55.158240374645
81.531760798594  55.555386939032
81.144945764007  55.951302012367
80.761255311818  56.346024081237
80.380607750212  56.73959063429
80.002924111762  57.132038206866
79.628128029132  57.523402423314
79.256145617635  57.913718037148
78.886905364195  58.303018969185
78.520338022299  58.691338343784
78.156376512554  59.078708523314
77.794955828485  59.465161140953
77.436012947256  59.850727131927
77.079486745002  60.235436763279
76.725317916477  60.619319662263
76.373448898778  61.002404843432
76.023823798871  61.38472073452
75.676388324715  61.766295201164
75.33108971975  62.147155570548
74.987876700566  62.527328654037
74.646699397562  62.906840768834
74.307509298417  63.285717758751
73.97025919422  63.663985014114
73.634903128106  64.041667490864
73.301396346251  64.418789728902
72.969695251103  64.795375869711
72.639757356717  65.171449673306
72.311541246085  65.547034534537
71.985006530345  65.922153498787
71.660113809777  66.296829277105
71.336824636478  66.67108426079
71.015101478642  67.044940535467
70.694907686339  67.418419894682
70.376207458737  67.791543853033
70.058965812674  68.164333658878
69.743148552521  68.536810306628
69.428722241261  68.908994548657
69.115654172733  69.280906906843
68.803912344963  69.652567683771
68.493465434554  70.023996973605
68.184282772051  70.395214672655
67.87633431826  70.76624048965
67.569590641451  71.137093955747
67.264022895419  71.507794434269
66.959602798345  71.878361130211
66.656302612435  72.24881309951
66.354095124275  72.619169258107
66.052953625897  72.989448390802
65.752851896493  73.359669159921
65.453764184759  73.72985011381
65.155665191848  74.100009695158
64.858530054874  74.470166249172
64.562334330973  74.840338031603
64.267053981867  75.210543216645
63.972665358928  75.580799904709
63.679145188698  75.951126130083
63.38647055886  76.321539868492
63.094618904624  76.692059044562
62.803567995519  77.062701539201
62.51329592256  77.433485196901
62.223781085783  77.804427832979
61.935002182117  78.17554724075
61.646938193588  78.54686119866
61.359568375825  78.918387477366
61.072872246868  79.290143846791
60.786829576246  79.662148083147
60.501420374321  80.034417975941
60.21662488188  80.406971334972
59.932423559963  80.779825997322
59.648797079912  81.152999834353
59.365726313625  81.526510758718
59.083192324008  81.900376731391
58.801176355614  82.274615768726
58.519659825449  82.649245949548
58.238624313941  83.024285422293
57.958051556055  83.399752412196
57.677923432555  83.775665228538
57.39822196138  84.152042271967
57.118929289152  84.528902041882
56.840027682779  84.906263143916
56.561499521165  85.2841442975
56.283327286997  85.662564343535
56.005493558616  86.041542252174
55.727981001958  86.421097130716
55.450772362543  86.801248231643
55.173850457521  87.18201496078
54.897198167756  87.563416885613
54.620798429934  87.945473743765
54.344634228697  88.328205451635
54.068688588787  88.711632113226
53.792944567183  89.095774029157
53.517385245243  89.480651705883
53.241993720813  89.866285865126
52.96675310032  90.25269745354
52.691646490816  90.639907652611
52.416656991984  91.027937888817
52.141767688075  91.416809844056
51.866961639785  91.806545466356
51.592221876045  92.197166980889
51.317531385723  92.5886969013
51.042873109222  92.981158041367
50.768229929965  93.374573527019
50.493584665752  93.768966808717
50.218920059981  94.164361674233
49.944218772712  94.560782261835
49.669463371568  94.958253073906
49.394636322462  95.356798991024
49.119719980119  95.756445286514
48.844696578399  96.157217641516
48.569548220387  96.559142160582
48.29425686825  96.962245387831
48.018804332829  97.366554323705
47.743172262953  97.772096442341
47.467342134459  98.178899709608
47.1912952389  98.586992601829
46.915012671907  98.996404125244
46.638475321193  99.407163836241
46.361663854183  99.819301862397
46.084558705219  100.23284892439
45.807140062345  100.64783635879
45.52938785362  101.06429614188
45.251281732946  101.48226091437
44.972801065362  101.90176400733
44.693924911793  102.32283946911
44.414632013195  102.74552209358
44.134900774079  103.16984744956
43.854709245356  103.59585191165
43.574035106477  104.02357269242
43.292855646803  104.45304787618
43.011147746177  104.8843164543
42.728887854627  105.31741836228
42.446051971158  105.75239451856
42.162615621561  106.18928686531
41.878553835185  106.62813841123
41.593841120598  107.06899327653
41.308451440058  107.51189674024
41.022358182724  107.95689528992
40.735534136515  108.40403667406
40.447951458522  108.8533699573
40.159581643876  109.30494557853
39.870395492969  109.75881541231
39.580363076894  110.2150328336
39.289453701006  110.67365278627
38.997635866431  111.1347318554
38.704877229412  111.59832834384
38.411144558293  112.06450235326
38.116403688006  112.53331587008
37.820619471832  113.0048328565
37.523755730252  113.4791193472
37.225775196658  113.95624355206
36.926639459673  114.43627596528
36.626308901803  114.91928948164
36.324742634143  115.40535952017
36.021898426797  115.89456415613
35.717732634666  116.38698426174
35.4122001182  116.88270365657
35.105254158702  117.38180926829
34.796846367699  117.88439130476
34.486926589849  118.39054343835
34.175442798827  118.90036300379
33.86234098553  119.41395121044
33.547565037894  119.93141337068
33.231056611549  120.45285914565
32.912754990413  120.97840281009
32.592596936259  121.50816353823
32.270516526159  122.04226571256
31.946444976589  122.58083925812
31.620310452802  123.12402000457
31.292037861965  123.67195007917
30.961548628284  124.22477833395
30.628760448199  124.78266081056
30.293587023408  125.34576124729
29.955937769225  125.91425163274
29.615717495425  126.48831281166
29.272826056317  127.06813514907
28.92715796634  127.65391925966
28.578601976945  128.24587681047
28.227040609857  128.84423140617
27.87234964111  129.4492195674
27.514397529355  130.06109181458
27.153044780874  130.68011387139
26.788143242551  131.30656800443
26.419535312532  131.9407545185
26.047053056547  132.58299343006
25.670517215757  133.23362634567
25.289736089382  133.89301857683
24.904504272246  134.56156152888
24.514601223548  135.23967540828
24.119789638435  135.92781230224
23.719813588136  136.62645969477
23.314396387173  137.3361444977
22.903238137061  138.05743769156
22.486012884458  138.79095969346
22.062365317169  139.53738659582
21.63190690275  140.29745745555
21.194211350348  141.07198285799
20.748809245017  141.86185503939
20.295181662368  142.66805992925
19.832752516378  143.4916915774
19.360879319146  144.33396956956
18.878841930439  145.19626022511
18.385828735593  146.08010263206
17.880919495038  146.98724094107
17.363063830738  147.91966486235
16.831053911841  148.87966106566
16.28348930622  149.86987930156
15.718731064699  150.89341875081
15.134840711616  151.95394272254
14.529497598056  153.05583398144
13.899884432334  154.20440981456
13.24252460078  155.40622757765
12.553043877856  156.66953211162
11.82580857031  158.00493495053
11.053351435964  159.42649153312
10.225410044275  160.95350504928
9.3272000815734  162.61376432647
8.3360152096704  164.44991765544
7.21360509374  166.53375598046
5.8853322033857  169.00525849717
4.1583519218306  172.22580883945
0  180


