#d+<sup>13</sup>C&rarr;<sup>14</sup>C+p, <em>E<sub>k</sub></em>(d)=2 MeV
#<em>&theta;</em><sub>3</sub>, <em>&theta;</em><sub>4</sub>
180  0
158.85458787361  6.3024618255317
150.81373427245  8.9188613979109
145.04857743413  10.930496717942
140.47631351521  12.629750881936
136.66593988787  14.129798752564
133.39223196971  15.48864608343
130.51977693494  16.740729649495
127.95975737735  17.908473434468
125.65033569195  19.007444074104
123.54653708648  20.048969074687
121.61453840934  21.041595034405
119.82821910167  21.991958216162
118.16696619926  22.905333314186
116.61421759062  23.785994845359
115.15646143858  24.637463880407
113.78252892328  25.462681664571
112.48308200471  26.264134976992
111.25023458692  27.043948674467
110.07726719782  27.803955343027
108.95840863838  28.545748618414
107.88866649963  29.2707246239
106.86369393688  29.980114609268
105.87968374814  30.675010971452
104.93328329093  31.356388226241
104.02152549663  32.025120078776
103.1417724572  32.681993444484
102.29166893063  33.327720060757
101.46910374356  33.962946176639
100.67217753547  34.588260695473
99.89917563527  35.204202061968
99.148545121942  35.811264122409
98.418875319379  36.409901139089
97.708881127793  37.000532103458
97.017388711907  37.583544464227
96.343323158211  38.159297364526
95.685697785893  38.728124464877
95.043604853429  39.290336414926
94.416207448499  39.846223025904
93.802732385601  40.396055186908
93.202463965363  40.940086560989
92.614738473599  41.478555091177
92.038939317768  42.011684341835
91.474492714629  42.539684696816
90.920863856127  43.062754432683
90.377553491556  43.581080682526
89.844094873188  44.094840303717
89.320051020165  44.604200661051
88.80501226189  45.109320335124
88.298594027501  45.61034976451
87.8004348526  46.107431829126
87.310194578225  46.600702381249
86.827552720368  47.090290729807
86.352206991115  47.576320082881
85.8838719549  48.05890795273
85.422277805392  48.538166527167
84.967169250323  49.014203010622
84.518304493103  49.487119937882
84.075454301336  49.957015463128
83.638401153572  50.423983626606
83.206938456553  50.888114601028
82.780869826138  51.349494919536
82.360008425812  51.808207686912
81.944176357357  52.264332775501
81.53320409887  52.717947007191
81.126929985787  53.169124322639
80.725199731051  53.617935938832
80.327865980949  54.064450495941
79.934787903509  54.508734194361
79.545830806628  54.950850922722
79.160865783422  55.390862377585
78.779769382508  55.8288281755
78.40242330115  56.264805957984
78.028714099398  56.698851489994
77.658532933538  57.131018752363
77.29177530731  57.561360028653
76.92834083949  57.989925986845
76.568133046577  58.416765756232
76.211059139418  58.841926999853
75.85702983272  59.265455982797
75.505959166487  59.687397636659
75.157764338486  60.107795620409
74.812365546953  60.526692377925
74.469685842793  60.944129192416
74.129650990591  61.360146237933
73.792189337811  61.774782628173
73.457231691626  62.188076462739
73.124711202836  62.600064871028
72.794563256389  63.010784053902
72.466725368074  63.420269323271
72.141137086959  63.828555139723
71.8177399032  64.235675148328
71.496477160866  64.641662212717
71.177293975457  65.046548447551
70.860137155817  65.450365249468
70.544955130151  65.853143326606
70.231697875908  66.254912726774
69.920316853262  66.655702864375
69.610764941998  67.055542546116
69.30299638157  67.454459995615
68.996966714159  67.852482876931
68.692632730531  68.249638317112
68.389952418549  68.645952927787
68.088884914167  69.041452825877
67.789390454766  69.436163653456
67.491430334701  69.830110596827
67.194966862926  70.223318404845
66.899963322577  70.61581140652
66.606383932412  71.007613527967
66.314193809993  71.398748308703
66.02335893652  71.789238917355
65.733846123225  72.179108166793
65.445622979234  72.568378528728
65.15865788083  72.957072147799
64.872919942025  73.345210855179
64.58837898639  73.73281618172
64.305005520057  74.119909370672
64.02277070584  74.506511389987
63.741646338423  74.89264294424
63.461604820543  75.278324486179
63.18261914013  75.663576227931
62.904662848351  76.048418151877
62.627710038504  76.432870021218
62.351735325728  76.81695139025
62.076713827489  77.200681614353
61.802621144787  77.584079859729
61.529433344066  77.967165112885
61.25712693978  78.349956189884
60.985678877589  78.732471745379
60.715066518144  79.114730281439
60.445267621442  79.496750156178
60.176260331717  79.878549592209
59.908023162841  80.260146684915
59.640534984206  80.641559410575
59.373775007072  81.022805634329
59.107722771347  81.403903118006
58.842358132786  81.784869527834
58.57766125058  82.165722442015
58.313612575323  82.546479358201
58.050192837332  82.927157700867
57.787383035302  83.307774828588
57.525164425287  83.688348041243
57.263518509974  84.068894587132
57.002427028249  84.449431670038
56.741871945037  84.829976456221
56.481835441395  85.210546081373
56.222299904844  85.591157657519
55.963247919939  85.971828279894
55.704662259043  86.352575033789
55.446525873317  86.733415001375
55.18882188389  87.114365268524
54.931533573213  87.495442931618
54.67464437658  87.876665104365
54.418137873803  88.25804892463
54.161997781038  88.639611561281
53.906207942739  89.021370221061
53.650752323746  89.403342155497
53.395615001473  89.785544667849
53.140780158219  90.167995120115
52.886232073562  90.550710940081
52.631955116844  90.933709628452
52.377933739727  91.317008766045
52.124152468827  91.700626021073
51.870595898397  92.084579156513
51.617248683063  92.468886037581
51.364095530599  92.853564639308
51.111121194737  93.238633054238
50.858310467999  93.624109500254
50.605648174536  94.010012328538
50.353119162984  94.396360031683
50.100708299308  94.783171251952
49.848400459631  95.170464789717
49.596180523051  95.558259612072
49.344033364418  95.946574861632
49.091943847075  96.335429865543
48.839896815545  96.7248441447
48.587877088164  97.1148374232
48.33586944964  97.505429638027
48.083858643536  97.896640949001
47.831829364658  98.288491748995
47.57976625135  98.681002674433
47.327653877671  99.0741946161
47.075476745452  99.468088730259
46.823219276218  99.862706450111
46.570865802963  100.25806949761
46.318400561768  100.65419989566
46.065807683242  101.05111998068
45.813071183784  101.44885241563
45.560174956638  101.84742020343
45.307102762736  102.24684670088
45.053838221313  102.64715563304
44.800364800271  103.04837110817
44.546665806281  103.45051763316
44.292724374603  103.85362012957
44.038523458606  104.25770395024
43.784045818968  104.66279489664
43.529274012533  105.06891923675
43.274190380803  105.47610372374
43.018777038049  105.88437561543
42.763015859003  106.29376269447
42.506888466118  106.70429328943
42.250376216358  107.11599629672
41.993460187495  107.5289012035
41.736121163881  107.94303811156
41.478339621657  108.35843776228
41.220095713365  108.77513156269
40.961369251936  109.1931516127
40.702139693993  109.61253073363
40.442386122447  110.03330249799
40.182087228322  110.4555012608
39.921221291777  110.87916219229
39.659766162254  111.30432131224
39.397699237714  111.73101552603
39.134997442889  112.15928266249
38.871637206479  112.58916151363
38.607594437248  113.02069187642
38.342844498914  113.45391459684
38.077362183775  113.88887161609
37.811121684971  114.32560601941
37.544096567298  114.7641620875
37.276259736456  115.20458535073
37.007583406641  115.64692264644
36.73803906635  116.09122217946
36.467597442271  116.53753358601
36.196228461122  116.98590800148
35.923901209285  117.43639813204
35.650583890072  117.88905833063
35.376243778443  118.34394467751
35.100847172975  118.80111506579
34.824359344888  119.26062929229
34.546744483865  119.72254915413
34.267965640444  120.18693855156
33.987984664679  120.65386359747
33.706762140785  121.12339273417
33.424257317413  121.59559685804
33.140428033206  122.07054945262
32.855230637218  122.54832673102
32.568619903756  123.02900778835
32.28054894116  123.512674765
31.990969093954  123.99941302188
31.699829837801  124.48931132866
31.40707866656  124.98246206605
31.112660970728  125.47896144376
30.816519906427  125.97890973526
30.518596254027  126.4824115313
30.21882826537  126.98957601383
29.917151498448  127.50051725248
29.613498638248  128.01535452587
29.307799302318  128.53421267032
28.999979829417  129.05722245903
28.689963049417  129.58452101473
28.377668032379  130.1162522599
28.063009814439  130.65256740845
27.745899097829  131.19362550388
27.426241921981  131.73959400927
27.103939302233  132.29064945547
26.778886832133  132.84697815442
26.450974244761  133.4087769861
26.120084927785  133.97625426839
25.786095386128  134.54963072083
25.448874645175  135.12914053499
25.108283586261  135.71503256624
24.7641742048  136.30757166417
24.416388779775  136.90704016182
24.064758941281  137.51373954763
23.709104620388  138.12799234824
23.34923286269  138.7501442555
22.984936483232  139.38056653762
22.615992536146  140.01965878227
22.242160566815  140.66785202911
21.863180607571  141.32561236169
21.478770869416  141.99344504367
21.088625071467  142.67189930368
20.692409336164  143.36157389765
20.289758560739  144.0631236088
19.880272152813  144.77726688574
19.463508988471  145.50479487236
19.038981412298  146.24658215226
18.606148047173  147.0035996232
18.164405112018  147.77693004128
17.713075850948  148.56778694436
17.251397546331  149.37753789774
16.778505404895  150.20773333369
16.293412344822  151.06014272272
15.794983333238  151.93680049164
15.281902363989  152.84006510336
14.752629320266  153.77269622435
14.205342657993  154.73795724472
13.637861763072  155.73975413809
13.047539414734  156.78282776166
12.431108962005  157.87302710621
11.784460474699  159.017709491
11.102300823534  160.22634819387
10.377614410945  161.51149631166
9.6007598633038  162.89040108051
8.7578481081155  164.38790208019
7.8275486119283  166.04213741412
6.7739301931342  167.91733309075
5.5268837955328  170.13877158942
3.9052740030932  173.03003730737
0  180


