#d+<sup>13</sup>C&rarr;d+<sup>13</sup>C, <em>E<sub>k</sub></em>(d)=2 MeV
#<em>&theta;</em><sub>3</sub>, <em>&theta;</em><sub>4</sub>
180  0
172.17054735769  3.3097505411921
168.92745636942  4.683304992577
166.43889403685  5.7390611082905
164.34086977464  6.6306116924408
162.49238940198  7.4174150724348
160.82113882245  8.1299484661865
159.28415742007  8.7863072191846
157.8534518539  9.3982754284051
156.50957616592  9.9740342849292
155.23837044501  10.519537578209
154.0291438896  11.039277817744
152.87358976299  11.536743634446
151.76510123601  12.014708116045
150.69832070383  12.475418698736
149.66883200409  12.920726816407
148.6729437734  13.352179136378
147.7075329791  13.771083437032
146.76992937669  14.178557242479
145.85782852352  14.575564428115
144.96922516876  14.962943244463
144.10236147273  15.341428096674
143.25568620938  15.711666700083
142.42782223208  16.074233757606
141.61754024458  16.429641983676
140.82373744498  16.778351077821
140.04541997973  17.120775095458
139.28168840842  17.457288552371
138.53172557087  17.788231518972
137.79478638842  18.113913901374
137.07018923533  18.434619062481
136.35730859452  18.750606903293
135.65556877143  19.062116499592
134.96443848549  19.369368369982
134.28342619378  19.672566436344
133.61207602936  19.971899726203
132.94996425821  20.267543857323
132.29669617617  20.559662337648
131.65190338066  20.848407707874
131.01524136356  21.133922549344
130.38638737996  21.416340376146
129.76503855526  21.695786427274
129.15091019866  21.972378372207
128.54373429634  22.246226941178
127.94325816134  22.517436489736
127.34924322069  22.78610550579
126.76146392318  23.052327066118
126.17970675324  23.316189248383
125.6037693388  23.577775503823
125.03345964229  23.837164995131
124.46859522544  24.094432903386
123.90900257992  24.349650707468
123.35451651673  24.602886438878
122.80497960809  24.854204914585
122.26024167644  25.103667950159
121.7201593258  25.351334555195
121.18459551126  25.597261112798
120.65341914282  25.841501544692
120.12650472039  26.084107463325
119.60373199687  26.32512831222
119.0849856668  26.564611495647
118.57015507826  26.802602498604
118.05913396579  27.039144997976
117.55182020272  27.274280965655
117.0481155709  27.50805076432
116.54792554666  27.740493236503
116.05115910142  27.971645787523
115.5577285158  28.201544462777
115.06754920615  28.430224019874
114.58053956243  28.657717996006
114.09662079665  28.884058770957
113.61571680092  29.109277626077
113.1377540144  29.333404799538
112.66266129861  29.556469538165
112.19036982019  29.778500146083
111.7208129409  29.999524030432
111.25392611397  30.219567744363
110.78964678671  30.438657027498
110.3279143086  30.656816844055
109.86866984471  30.874071418797
109.41185629394  31.09044427094
108.95741821186  31.305958246194
108.5053017377  31.520635547027
108.0554545254  31.734497761305
107.6078256782  31.94756588939
107.16236568681  32.159860369814
106.71902637075  32.371401103613
106.27776082264  32.582207477417
105.83852335547  32.792298385357
105.40126945233  33.001692249888
104.96595571878  33.210407041573
104.53253983746  33.418460297906
104.10098052494  33.625869141229
103.67123749058  33.832650295797
103.24327139735  34.038820104041
102.81704382449  34.244394542078
102.39251723187  34.449389234518
101.96965492595  34.653819468595
101.54842102727  34.857700207675
101.12878043941  35.06104610417
100.71069881926  35.263871511893
100.29414254858  35.466190497888
99.879078706818  35.668016853754
99.465475044994  35.869364106511
99.053299960724  36.070245529012
98.64252247424  36.270674149939
98.233112205386  36.470662763402
97.825039351526  36.670223938164
97.418274666321  36.869370026507
97.012789439329  37.068113172765
96.608555476379  37.266465321537
96.205545080694  37.464438225602
95.803731034697  37.662043453545
95.403086582498  37.859292397116
95.003585413003  38.056196278327
94.605201643616  38.252766156318
94.207909804522  38.449012933981
93.811684823491  38.644947364373
93.416502011211  38.840580056924
93.022337047091  39.035921483443
92.629165965535  39.230981983948
92.236965142651  39.425771772314
91.845711283369  39.620300941754
91.455381408967  39.814579470155
91.065952844956  40.008617225246
90.677403209332  40.202423969645
90.289710401159  40.39600936576
89.902852589476  40.58938298057
89.5168082025  40.782554290287
89.131555917129  40.975532684905
88.747074648703  41.168327472647
88.363343541036  41.360947884307
87.980341956682  41.553403077508
87.598049467438  41.745702140862
87.216445845064  41.937854098058
86.835511052205  42.129867911868
86.455225233513  42.321752488082
86.075568706945  42.513516679379
85.69652195524  42.705169289134
85.318065617546  42.896719075172
84.940180481214  43.088174753466
84.562847473712  43.279545001787
84.186047654689  43.470838463316
83.809762208146  43.662063750211
83.433972434731  43.853229447141
83.058659744127  44.044344114789
82.683805647541  44.235416293333
82.309391750278  44.426454505891
81.935399744391  44.617467261963
81.561811401399  44.808463060847
81.188608565074  44.999450395048
80.815773144268  45.190437753675
80.4432871058  45.381433625844
80.071132467369  45.572446504069
79.699291290499  45.763484887662
79.327745673513  45.954557286148
78.956477744513  46.145672222675
78.585469654365  46.336838237455
78.214703569695  46.528063891214
77.84416166586  46.719357768671
77.473826119914  46.910728482039
77.103679103542  47.102184674561
76.733702775965  47.293735024079
76.363879276806  47.485388246641
75.994190718899  47.677153100155
75.624619181049  47.869038388086
75.255146700724  48.061052963209
74.88575526667  48.253205731419
74.516426811444  48.445505655598
74.14714320386  48.637961759552
73.777886241324  48.830583132019
73.408637642065  49.023378930755
73.039379037245  49.216358386694
72.670091962935  49.409530808206
72.30075785195  49.602905585441
71.931358025536  49.796492194773
71.561873684888  49.990300203352
71.192285902497  50.184339273765
70.822575613306  50.378619168816
70.452723605674  50.573149756431
70.082710512116  50.767941014697
69.712516799825  50.963003037043
69.342122760952  51.158346037564
68.971508502626  51.353980356506
68.600653936705  51.549916465918
68.229538769244  51.746164975477
67.858142489647  51.942736638499
67.486444359507  52.139642358143
67.114423401095  52.336893193824
66.742058385493  52.534500367843
66.369327820338  52.732475272247
65.996209937166  52.930829475928
65.622682678325  53.129574731984
65.248723683429  53.328722985346
64.874310275335  53.528286380687
64.499419445621  53.728277270643
64.124027839507  53.928708224341
63.748111740227  54.129592036269
63.371647052788  54.330941735499
62.994609287092  54.532770595288
62.616973540394  54.73509214307
62.238714479032  54.937920170877
61.859806319413  55.141268746195
61.480222808193  55.345152223297
61.099937201605  55.549585255069
60.718922243898  55.754582805368
60.337150144806  55.960160161933
59.954592556022  56.166332949896
59.571220546579  56.373117145913
59.187004577105  56.580529092974
58.801914472859  56.788585515909
58.41591939547  56.997303537653
58.028987813321  57.206700696318
57.641087470456  57.416794963099
57.252185353946  57.627604761107
56.862247659593  57.839148985152
56.471239755868  58.051447022563
56.079126145966  58.264518775102
55.685870427854  58.478384682049
55.291435252162  58.69306574454
54.895782277787  58.908583551241
54.498872125033  59.124960305451
54.10066432612  59.342218853733
53.70111727288  59.560382716196
53.30018816142  59.779476118516
52.897832933547  59.999524025866
52.494006214702  60.220552178853
52.08866124815  60.442587131647
51.68174982513  60.665656292448
51.27322221066  60.889787966479
50.863027064663  61.115011401702
50.451111358019  61.341356837471
50.03742028317  61.568855556362
49.621897158793  61.797539939432
49.204483328091  62.027443525197
48.785118050123  62.25860107264
48.363738383614  62.491048628588
47.940279062577  62.724823599848
47.514672363018  62.9599648305
47.086847959951  63.196512684836
46.65673277381  63.434509136429
46.224250805307  63.673997863915
45.789322957632  63.915024354122
45.351866844794  64.157636013227
44.911796584744  64.401882286746
44.469022575789  64.647814789213
44.023451254599  64.89548744453
43.574984833925  65.144956638085
43.123521017898  65.396281381865
42.668952692531  65.649523493944
42.211167588716  65.904747793924
41.75004791467  66.162022316069
41.285469954378  66.421418542161
40.817303628098  66.68301165634
40.345412010457  66.946880824516
39.869650801021  67.213109501323
39.389867741488  67.481785768008
38.905901972767  67.753002705138
38.417583324204  68.026858804628
37.924731525966  68.303458426276
37.427155334223  68.58291230482
36.924651556991  68.865338114522
36.417003966533  69.150861099473
35.903982081733  69.439614779187
35.385339800937  69.731741740797
34.860813862204  70.027394531196
34.330122103582  70.32673666496
33.79296149074  70.629943766977
33.249005872791  70.937204872429
32.697903419118  71.248723911454
32.139273679993  71.564721411574
31.572704201279  71.885436458235
30.997746607704  72.211128962925
30.413912049112  72.542082299976
29.820665878401  72.878606387984
29.217421396616  73.221041311041
28.603532457382  73.569761599979
27.978284665821  73.925181326829
27.340884831259  74.287760209543
26.690448230923  74.658010983069
26.025983102744  75.036508373287
25.346371593337  75.423900121376
24.650346118064  75.820920661741
23.936459706871  76.228408278247
23.20304835411  76.647326884564
22.448182569491  77.078794049101
21.669604086867  77.524117601995
20.864641767136  77.984844271666
20.030097675031  78.462825565009
19.162089289511  78.96030900668
18.255825258741  79.480067793355
17.305276928092  80.025590692741
16.302679535642  80.601370390156
15.23774085965  81.213360907595
14.096315623814  81.869743755035
12.858025284037  82.582303487844
11.491570984744  83.369136153923
9.9442267442328  84.260720151693
8.1131071965772  85.316516106523
5.7323787867665  86.690122744688
0  90


