#d+<sup>27</sup>Al&rarr;d+<sup>27</sup>Al, <em>E<sub>k</sub></em>(d)=2 MeV
#<em>&theta;</em><sub>3</sub>, <em>&theta;</em><sub>4</sub>
180  0
172.84737441148  3.3097969002237
169.88112571308  4.6833704444267
167.60261287261  5.7391411355016
165.67968769176  6.6307039442128
163.98374102633  7.4175180386883
162.4488360484  8.1300610687369
161.0358155943  8.7864286368286
159.7191743256  9.3984050076444
158.4812013322  9.974171488935
157.30900501979  10.51968195523
156.19285589353  11.039428980352
155.12519705169  11.536901245261
154.10002036661  12.014871877545
153.11245561335  12.475588345763
152.1584899204  12.920902110513
151.23477032592  13.352359861468
150.33846119877  13.771269395947
149.46713896907  14.178748254265
148.61871288849  14.575760325823
147.79136436194  14.96314387334
146.98349979329  15.341633312672
146.19371343893  15.711876368607
145.42075778984  16.074447752464
144.66351969753  16.429860186181
143.92100093861  16.778573376026
143.19230224933  17.121001383495
142.47661010182  17.457518729878
141.77318566771  17.78846549059
141.08135554273  18.114151576313
140.40050390041  18.43486035413
139.73006581491  18.75085172888
139.06952154677  19.062364779879
138.41839162723  19.369620028994
137.77623260873  19.672821401128
137.14263337461  19.972157926607
136.51721192054  20.2678052258
135.89961253607  20.559926809079
135.28950332712  20.848675219406
134.68657403037  21.134193040243
134.0905340785  21.416613787662
133.5011108821  21.696062702523
132.91804829923  21.972657456055
132.34110526814  22.246508780139
131.7700545825  22.517721031878
131.20468179129  22.786392700646
130.64478420827  23.052616864609
130.0901700179  23.316481602739
129.54065746648  23.578070367519
128.99607412894  23.837462322817
128.45625624249  24.094732650833
127.92104810021  24.349952831508
127.39030149782  24.603190897354
126.86387522812  24.854511666303
126.34163461828  25.103976954842
125.82345110551  25.35164577344
125.3092018472  25.597574506038
124.79876936249  25.841817075157
124.29204120179  26.084425094008
123.78890964203  26.325448006842
123.28927140491  26.564933218628
122.79302739634  26.802926215033
122.30008246487  27.039470673583
121.81034517773  27.274608566786
121.32372761267  27.508380257908
120.84014516445  27.74082459005
120.35951636463  27.971978969074
119.88176271359  28.201879440902
119.40680852381  28.430560763644
118.9345807734  28.658056474976
118.46500896919  28.88439895515
117.99802501854  29.109619485961
117.53356310924  29.333748306017
117.07155959684  29.556814662557
116.61195289892  29.778846860109
116.15468339569  29.9998723062
115.69969333659  30.219917554353
115.24692675223  30.439008344551
114.79632937163  30.657169641362
114.347848544  30.874425669883
113.90143316503  31.090799949656
113.45703360729  31.306315326703
113.0146016544  31.520994003797
112.57409043879  31.734857569096
112.13545438279  31.947927023244
111.69864914286  32.160222805049
111.26363155667  32.371764815812
110.83035959291  32.582572442417
110.39879230374  32.792664579245
109.96888977948  33.002059648991
109.54061310568  33.210775622449
109.11392432218  33.418830037338
108.68878638424  33.626240016218
108.26516312543  33.833022283555
107.84301922236  34.039193181983
107.42232016097  34.244768687818
107.0030322044  34.44976442586
106.58512236233  34.654195683527
106.16855836168  34.858077424365
105.75330861853  35.06142430096
105.33934221144  35.264250667293
104.92662885568  35.46657059057
104.51513887877  35.668397862548
104.10484319691  35.869746010398
103.69571329243  36.070628307122
103.28772119212  36.271057781544
102.88083944652  36.471047227913
102.47504110988  36.670609215124
102.07029972106  36.869756095588
101.66658928507  37.068500013765
101.26388425531  37.266852914374
100.86215951648  37.464826550312
100.46139036817  37.662432490276
100.06155250896  37.859682126123
99.662622021104  38.056586679972
99.26457535582  38.253157211064
98.867389318972  38.449404622388
98.471041057309  38.645339667096
98.075508045136  38.840972954708
97.680768071413  39.036314957122
97.286799227267  39.231376014438
96.893579893892  39.426166340611
96.501088730812  39.620696028936
96.109304664498  39.814975057369
95.718206877313  40.009013293715
95.327774796768  40.202820500658
94.93798808508  40.396406340672
94.548826629001  40.589780380798
94.160270529921  40.782952097307
93.77230009422  40.975930880251
93.384895823855  41.168726037907
92.998038407172  41.361346801119
92.611708709929  41.55380232756
92.225887766518  41.746101705887
91.840556771377  41.938253959833
91.45569707057  42.130268052209
91.071290153544  42.322152888843
90.687317645026  42.513917322451
90.303761297079  42.70557015644
89.920602981278  42.897120148665
89.537824681022  43.088576015126
89.155408483957  43.279946433622
88.773336574502  43.471240047355
88.391591226479  43.662465468503
88.010154795826  43.853631281754
87.629009713393  44.044746047807
87.248138477811  44.235818306851
86.867523648422  44.426856582017
86.487147838267  44.617869382812
86.106993707122  44.808865208541
85.727043954575  44.999852551711
85.347281313128  45.190839901434
84.967688541337  45.381835746824
84.588248416959  45.57284858039
84.20894373011  45.763886901441
83.829757276429  45.954959219492
83.450671850233  46.146074057679
83.071670237659  46.337239956203
82.692735209785  46.528465475774
82.313849515726  46.719759201092
81.934995875688  46.91112974435
81.556156973981  47.10258574877
81.177315451979  47.294135892165
80.79845390102  47.485788890558
80.419554855238  47.677553501826
80.040600784314  47.8694385294
79.661574086148  48.061452826022
79.28245707943  48.253605297547
78.903231996111  48.445904906816
78.523880973761  48.638360677594
78.144386047803  48.830981698573
77.764729143616  49.023777127458
77.384892068497  49.216756195134
77.004856503465  49.409928209916
76.62460399491  49.603302561898
76.244115946053  49.796888727394
75.863373608235  49.990696273492
75.482358071998  50.184734862713
75.101050257952  50.379014257792
74.719430907422  50.573544326585
74.337480572856  50.768335047105
73.955179607978  50.963396512701
73.572508157667  51.158738937388
73.189446147566  51.354372661329
72.805973273374  51.550308156486
72.422068989826  51.746556032444
72.037712499343  51.943127042425
71.652882740312  52.14003208949
71.267558375002  52.337282232953
70.881717777074  52.534888695011
70.495339018676  52.7328628676
70.10839985709  52.931216319502
69.720877720913  53.129960803697
69.332749695739  53.329108264993
68.943992509318  53.528670847942
68.554582516167  53.728660905049
68.164495681583  53.929091005308
67.773707565054  54.129973943069
67.382193302999  54.331322747261
66.989927590833  54.533150690992
66.596884664284  54.735471301546
66.203038279949  54.938298370797
65.808361695025  55.141645966068
65.41282764617  55.345528441464
65.016408327448  55.549960449698
64.619075367301  55.754956954448
64.220799804483  55.960533243266
63.821552062905  56.166704941095
63.421301925312  56.373488024393
63.020018505732  56.580898835946
62.617670220607  56.788954100373
62.214224758537  56.997670940393
61.80964904854  57.20706689389
61.403909226739  57.41715993183
60.996970601365  57.627968477083
60.588797615978  57.83951142421
60.179353810782  58.051808160285
59.768601781905  58.264878586804
59.356503138514  58.478743142774
58.943018457606  58.693422829048
58.528107236333  58.908939233997
58.111727841665  59.125314560618
57.693837457223  59.342571655163
57.274392027076  59.560734037411
56.853346196271  59.779825932707
56.430653247869  59.999872305872
56.006265036227  60.220898897155
55.580131916235  60.442932260352
55.152202668208  60.665999803276
54.722424418098  60.890129830746
54.290742552656  61.115351590311
53.857100629141  61.341695320891
53.421440279147  61.569192304613
52.983701106059  61.797874922069
52.543820575615  62.027776711291
52.10173389899  62.258932430758
51.657373907772  62.491378126775
51.210670920119  62.725151205604
50.761552597325  62.960290510759
50.309943789939  63.196836405942
49.855766372479  63.434830864109
49.3989390657  63.674317563259
48.939377245241  63.915341989547
48.476992735341  64.157951548455
48.011693586188  64.402195684768
47.543383833265  64.648126012257
47.071963236899  64.895796454027
46.597326999954  65.145263394632
46.119365461409  65.396585845183
45.637963763234  65.649825622839
45.153001487671  65.905047546236
44.664352261631  66.162319648629
44.171883324495  66.421713410739
43.675455055091  66.683304015585
43.174920453028  66.947170627899
42.670124568889  67.213396701074
42.160903876982  67.482070315046
41.647085583412  67.753284548994
41.128486861127  68.027137893369
40.604914002304  68.303734706414
40.076161476877  68.583185721218
39.542010884215  68.865608610294
39.002229782722  69.151128615868
38.45657037955  69.439879255469
37.904768059442  69.732003114111
37.346539727889  70.02765273642
36.781581939155  70.326991634546
36.209568774035  70.63019543077
35.630149425215  70.937453157473
35.042945439474  71.248968741771
34.447547555214  71.564962707924
33.843512060335  71.885674137843
33.230356578483  72.211362939178
32.607555170125  72.54231248208
31.974532607234  72.878832680578
31.330657644671  73.221263613759
30.675235064757  73.569979806949
30.007496210237  73.925395326101
29.326587639261  74.287969882426
28.631557426236  74.658216203366
27.921338482865  75.036709006401
27.194728067157  75.424096023252
26.450362358864  75.821111677623
25.686684567722  76.22859424118
24.901904443693  76.647507613589
24.093946175633  77.078969347052
23.260380331262  77.524287252771
22.39833342668  77.985008036813
21.504365427773  78.46298317936
20.574300089136  78.960460172705
19.602983846161  79.480212173663
18.583932654839  80.025727899894
17.508795715748  80.601499972389
16.366504703382  81.213482328066
15.141848691433  81.869856360227
13.812915408417  82.582406456531
12.346052822355  83.369228407894
10.684575093397  84.260800180829
8.7178787374792  85.316581559964
6.160212934503  86.690169104868
0  90


