#d+p&rarr;d+p, <em>E<sub>k</sub></em>(d)=2 MeV
#<em>&theta;</em><sub>3</sub>, <em>&theta;</em><sub>4</sub>
0  0
6.5406103399854  3.3082503346479
9.1353340482522  4.6811869274764
11.052375701366  5.7364713708258
12.609582514447  6.6276263548342
13.932130316752  7.4140830008437
15.085243657133  8.126304550521
16.108264655698  8.7823780333469
17.027203386189  9.3940821193483
17.86037805581  9.9695942241496
18.621300793417  10.514865384095
19.320297110331  11.034386027167
19.965480207167  11.531643164744
20.563369944385  12.009408594736
21.11930369811  12.469928706052
21.637719102596  12.915054068243
22.122354606874  13.346330625273
22.576395444201  13.76506554282
23.002582252219  14.172375820523
23.403293473385  14.569224880659
23.780608931125  14.956450579043
24.136359621366  15.334786974468
24.472167231097  15.704881476319
24.789475879948  16.067308515648
25.089577890719  16.422580563987
25.373634916567  16.771157102782
25.642695415333  17.11345199075
25.897709219697  17.449839565529
26.139539775967  17.780659735565
26.368974494685  18.106222259198
26.586733559365  18.426810364061
26.793477466662  18.742683826945
26.989813515442  19.054081609264
27.176301419269  19.361224124027
27.353458183398  19.66431519538
27.521762361146  19.963543760176
27.681657783785  20.259085351875
27.833556841597  20.551103399874
27.977843380492  20.839750371545
28.114875267899  21.125168779657
28.244986672948  21.407492074051
28.368490098881  21.686845433436
28.485678199782  21.963346470627
28.596825408916  22.237105862522
28.702189401945  22.508227914399
28.802012414992  22.776811066718
28.896522434691  23.042948351415
28.985934275039  23.306727803722
29.070450553865  23.568232834687
29.150262580065  23.827542568884
29.225551161295  24.084732151208
29.296487340617  24.339873026153
29.363233069524  24.593033192509
29.425941823879  24.844277436106
29.484759168526  25.093667542836
29.539823275652  25.341262493992
29.591265401399  25.587118645666
29.639210324724  25.831289893775
29.683776752053  26.0738278261
29.725077690895  26.314781862564
29.763220795235  26.554199384846
29.79830868524  26.792125856306
29.830439243544  27.028604933087
29.859705890132  27.263678567187
29.886197837675  27.497387102195
29.910000328941  27.729769362313
29.931194857786  27.960862735251
29.949859375065  28.190703249482
29.966068480674  28.419325646335
29.979893602835  28.646763447346
29.991403165628  28.873049017225
30.000662745664  29.098213622808
30.007735218752  29.322287488286
30.012680897298  29.54529984701
30.015557659134  29.767278990114
30.016421068407  29.988252312212
30.015324489102  30.208246354366
30.012319191732  30.427286844536
30.007454453678  30.64539873568
30.000777653618  30.862606241687
29.992334360465  31.078932871273
29.982168417184  31.29440146
29.970322019832  31.50903420053
29.956835792146  31.722852671252
29.941748855968  31.935877863362
29.925098897786  32.148130206532
29.906922231639  32.359629593226
29.887253858612  32.570395401783
29.866127523152  32.780446518314
29.843575766389  32.989801357508
29.819629976659  33.198477882418
29.794320437393  33.406493623267
29.767676372536  33.613865695359
29.739725989643  33.820610816135
29.710496520792  34.026745321431
29.680014261444  34.232285180978
29.648304607358  34.437246013202
29.615392089693  34.641643099352
29.581300408384  34.845491396999
29.546052463901  35.048805552942
29.50967038747  35.251599915564
29.472175569854  35.453888546647
29.433588688767  35.655685232701
29.393929734992  35.857003495819
29.353218037282  36.057856604083
29.311472286102  36.258257581563
29.268710556273  36.458219217904
29.224950328583  36.657754077549
29.180208510411  36.856874508604
29.134501455418  37.055592651365
29.087844982352  37.253920446528
29.040254393016  37.4518696431
28.991744489427  37.649451806023
28.942329590231  37.846678323527
28.892023546381  38.043560414229
28.84083975614  38.240109133992
28.78879117942  38.436335382547
28.735890351508  38.632249909908
28.682149396193  38.827863322568
28.627580038328  39.023186089515
28.572193615854  39.218228548047
28.516001091312  39.413000909429
28.459013062855  39.607513264366
28.401239774803  39.801775588336
28.342691127739  39.995797746763
28.283376688183  40.189589500052
28.223305697849  40.383160508499
28.16248708252  40.576520337064
28.100929460532  40.769678460031
28.038641150916  40.962644265562
27.975630181175  41.155427060134
27.911904294746  41.348036072888
27.847470958132  41.540480459879
27.782337367739  41.73276930824
27.716510456409  41.924911640265
27.649996899676  42.116916417417
27.582803121753  42.30879254426
27.514935301248  42.500548872331
27.446399376639  42.692194203947
27.377201051499  42.883737295952
27.307345799486  43.075186863423
27.236838869111  43.266551583313
27.16568528828  43.457840098067
27.093889868632  43.649061019183
27.021457209668  43.840222930752
26.948391702679  44.031334392957
26.874697534483  44.22240394555
26.80037869098  44.413440111306
26.725438960514  44.604451399458
26.64988193707  44.795446309112
26.57371102329  44.986433332661
26.496929433326  45.17742095918
26.419540195525  45.368417677824
26.34154615496  45.559431981226
26.262949975797  45.750472368896
26.183754143514  45.941547350628
26.103960966967  46.132665449925
26.02357258031  46.323835207425
25.942590944767  46.515065184362
25.861017850262  46.70636396604
25.778854916911  46.897740165336
25.696103596366  47.089202426235
25.612765173034  47.280759427403
25.528840765148  47.472419885791
25.444331325704  47.66419256029
25.359237643272  47.856086255433
25.27356034266  48.048109825141
25.187299885456  48.240272176542
25.100456570427  48.432582273831
25.013030533789  48.625049142215
24.925021749342  48.81768187192
24.836430028471  49.010489622272
24.747255020009  49.203481625867
24.657496209967  49.396667192824
24.567152921123  49.590055715134
24.476224312475  49.783656671104
24.384709378548  49.977479629908
24.292606948563  50.171534256254
24.199915685459  50.365830315161
24.106634084762  50.56037767687
24.012760473314  50.755186321881
23.918293007835  50.950266346138
23.823229673335  51.145627966353
23.727568281362  51.341281525496
23.631306468088  51.537237498447
23.534441692215  51.733506497824
23.436971232716  51.930099279993
23.338892186389  52.127026751281
23.240201465226  52.324299974386
23.140895793589  52.521930175012
23.040971705189  52.719928748731
22.940425539849  52.918307268086
22.839253440065  53.117077489953
22.737451347334  53.316251363173
22.635014998256  53.515841036465
22.531939920388  53.715858866649
22.428221427853  53.916317427178
22.323854616684  54.11722951701
22.218834359888  54.31860816984
22.113155302229  54.520466663701
22.00681185471  54.722818530962
21.899798188734  54.925677568753
21.792108229939  55.129057849828
21.683735651682  55.3329737339
21.574673868163  55.537439879473
21.464916027159  55.742471256208
21.354455002354  55.948083157838
21.243283385244  56.154291215687
21.131393476591  56.361111412805
21.0187772774  56.568560098786
20.905426479395  56.776654005281
20.79133245496  56.985410262275
20.67648624652  57.194846415155
20.560878555322  57.404980442641
20.444499729582  57.615830775614
20.327339751964  57.827416316916
20.209388226336  58.039756462176
20.090634363775  58.252871121737
19.971066967753  58.46678074375
19.850674418468  58.681506338527
19.729444656246  58.89706950422
19.607365163973  59.113492453945
19.484422948464  59.330798044424
19.360604520717  59.549009806276
19.235895874965  59.768151976064
19.110282466433  59.988249530229
18.983749187724  60.209328221057
18.856280343711  60.431414614813
18.727859624839  60.654536132238
18.598470078711  60.878721091558
18.468094079825  61.103998754222
18.336713297318  61.330399373578
18.204308660555  61.557954246729
18.070860322402  61.786695769819
17.936347619971  62.016657497036
17.800749032647  62.247874203654
17.66404213716  62.480381953442
17.526203559438  62.71421817083
17.387208922981  62.949421718244
17.247032793424  63.186032979083
17.105648618959  63.424093946828
16.963028666235  63.663648320876
16.819143951303  63.904741609711
16.673964165148  64.147421242119
16.527457593278  64.391736687234
16.379591028774  64.637739584277
16.230329678171  64.885483882976
16.079637059405  65.135025995756
15.927474891027  65.386424962925
15.773802971733  65.639742632259
15.618579049178  65.895043854521
15.461758676884  66.152396696711
15.303295057894  66.411872675023
15.143138873646  66.673547009807
14.98123809634  66.937498905117
14.817537782799  67.20381185581
14.651979847547  67.472573985591
14.484502812508  67.743878419901
14.315041530304  68.017823698137
14.143526877664  68.294514230404
13.969885414932  68.574060804809
13.794039006958  68.856581152318
13.615904399901  69.142200577347
13.435392747509  69.431052663698
13.252409079314  69.723280067126
13.066851701798  70.019035407894
12.878611521911  70.318482279176
12.687571280288  70.621796390217
12.493604678962  70.929166866929
12.296575385312  71.240797737247
12.096335890068  71.556909634354
11.892726192364  71.877741758135
11.685572278735  72.203554144363
11.474684355155  72.534630302722
11.259854781288  72.871280299672
11.040855643264  73.213844381367
10.817435884552  73.56269725689
10.589317892436  73.918253195088
10.356193408288  74.280972132126
10.117718590361  74.651367045988
9.8735080040525  75.03001293458
9.6231272403942  75.417557845201
9.3660837594936  75.814736558814
9.1018154076333  76.222387754211
8.8296758421437  76.641475798435
8.5489157810737  77.073118784655
8.2586585156906  77.518625156052
7.9578673823898  77.979542364796
7.6453017107183  78.457722782587
7.3194558266667  78.955414981928
6.9784723914714  79.475393450004
6.6200154982178  80.021148574916
6.2410780181809  80.597175124591
5.8376760469149  81.20942987557
5.4043372244045  81.866098115246
4.9331822511293  82.578969828728
4.4121167948308  83.366149384179
3.8207796158177  84.25812916336
3.1194658102825  85.314397011418
2.2056602917782  86.688621803676
0  90


